Time,Reference,Angle,Reference,Angle
12.82554,-318.872655,-318.871654,-468.316472,-468.315472
12.83577,-318.874242,-318.871654,-468.318059,-468.315472
12.84582,-318.876401,-318.871654,-468.320218,-468.315472
12.85726,-318.87971,-318.871654,-468.323527,-468.315472
12.86632,-318.882732,-318.871654,-468.326549,-468.315472
12.87648,-318.886791,-318.871654,-468.330609,-468.315472
12.8866,-318.891444,-318.871654,-468.335262,-468.315472
12.89675,-318.896734,-318.871654,-468.340551,-468.315472
12.90695,-318.902668,-318.871654,-468.346485,-468.315472
12.9171,-318.909198,-318.871654,-468.353016,-468.315472
12.9273,-318.916387,-318.871654,-468.360204,-468.324198
12.93744,-318.92414,-318.871654,-468.367958,-468.324198
12.94759,-318.932572,-318.871654,-468.376389,-468.324198
12.95773,-318.941514,-318.871654,-468.385331,-468.324198
12.96788,-318.951128,-318.871654,-468.394945,-468.332925
12.97802,-318.961363,-318.871654,-468.40518,-468.341651
12.98821,-318.972258,-318.871654,-468.416075,-468.341651
12.99827,-318.983632,-318.871654,-468.427449,-468.350378
13.00844,-318.995743,-318.871654,-468.439561,-468.359105
13.0186,-319.008455,-318.871654,-468.452272,-468.367831
13.02882,-319.02189,-318.871654,-468.465708,-468.376558
13.03894,-319.035789,-318.871654,-468.479606,-468.394011
13.04905,-319.050293,-318.871654,-468.49411,-468.402738
13.05917,-319.065421,-318.880381,-468.509238,-468.411465
13.06937,-319.081308,-318.889108,-468.525126,-468.420191
13.07956,-319.097795,-318.897834,-468.541612,-468.428918
13.08964,-319.114704,-318.906561,-468.558522,-468.437645
13.09986,-319.132479,-318.924014,-468.576297,-468.446371
13.10993,-319.150603,-318.941468,-468.59442,-468.455098
13.12004,-319.169432,-318.950194,-468.613249,-468.463825
13.13074,-319.190048,-318.976374,-468.633865,-468.472551
13.14041,-319.209207,-318.993827,-468.653024,-468.481278
13.15053,-319.229877,-319.011281,-468.673694,-468.498731
13.16066,-319.251202,-319.037461,-468.695019,-468.507458
13.17079,-319.273133,-319.054914,-468.71695,-468.516184
13.18099,-319.295836,-319.081094,-468.739654,-468.533638
13.19107,-319.318886,-319.107274,-468.762703,-468.551091
13.20125,-319.342788,-319.133454,-468.786606,-468.568544
13.21138,-319.367198,-319.150907,-468.811015,-468.594724
13.22151,-319.392206,-319.185814,-468.836023,-468.620904
13.23177,-319.418178,-319.211994,-468.861995,-468.647084
13.24195,-319.444585,-319.238173,-468.888402,-468.673264
13.25223,-319.47186,-319.27308,-468.915677,-468.708171
13.26215,-319.49875,-319.29926,-468.942567,-468.743077
13.27232,-319.526962,-319.334167,-468.970779,-468.777984
13.28247,-319.555748,-319.360347,-468.999566,-468.81289
13.29262,-319.585156,-319.40398,-469.028973,-468.847797
13.30278,-319.615173,-319.438886,-469.058991,-468.882704
13.31293,-319.645824,-319.473793,-469.089641,-468.926337
13.32334,-319.677919,-319.5087,-469.121736,-468.961243
13.33332,-319.709236,-319.552333,-469.153053,-468.99615
13.34346,-319.741725,-319.587239,-469.185542,-469.039783
13.3536,-319.774785,-319.630873,-469.218602,-469.07469
13.36386,-319.808868,-319.674506,-469.252685,-469.118323
13.37393,-319.84295,-319.709412,-469.286767,-469.161956
13.38404,-319.87777,-319.753046,-469.321588,-469.196863
13.39423,-319.913496,-319.796679,-469.357313,-469.240496
13.40439,-319.949723,-319.840312,-469.39354,-469.275403
13.41453,-319.986529,-319.883945,-469.430346,-469.319036
13.42503,-320.025306,-319.927579,-469.469124,-469.362669
13.43485,-320.06211,-319.971212,-469.505927,-469.397576
13.44503,-320.100895,-320.014845,-469.544712,-469.441209
13.45521,-320.140314,-320.058478,-469.584131,-469.484842
13.4654,-320.180366,-320.093385,-469.624183,-469.528475
13.47553,-320.220833,-320.137018,-469.66465,-469.563382
13.48569,-320.262019,-320.180651,-469.705836,-469.607015
13.49579,-320.303572,-320.224285,-469.747389,-469.650648
13.50599,-320.346207,-320.267918,-469.790024,-469.694282
13.51616,-320.389267,-320.311551,-469.833084,-469.737915
13.52665,-320.432428,-320.355184,-469.876245,-469.781548
13.53644,-320.472123,-320.398817,-469.91594,-469.825181
13.54659,-320.512716,-320.442451,-469.956533,-469.860088
13.55687,-320.553151,-320.477357,-469.996968,-469.912448
13.5669,-320.591984,-320.529717,-470.035801,-469.956081
13.57706,-320.630729,-320.57335,-470.074546,-469.999714
13.58719,-320.668761,-320.616984,-470.112578,-470.043348
13.59738,-320.706369,-320.660617,-470.150186,-470.086981
13.60749,-320.743113,-320.70425,-470.18693,-470.130614
13.61769,-320.779538,-320.747883,-470.223355,-470.174247
13.62792,-320.815465,-320.791517,-470.259282,-470.209154
13.63795,-320.850071,-320.83515,-470.293888,-470.252787
13.64815,-320.884656,-320.878783,-470.328473,-470.29642
13.65824,-320.918297,-320.91369,-470.362114,-470.331327
13.66843,-320.951623,-320.957323,-470.39544,-470.37496
13.67853,-320.984054,-321.000956,-470.427871,-470.418593
13.68871,-321.016126,-321.035863,-470.459943,-470.4535
13.70036,-321.051983,-321.079496,-470.4958,-470.497133
13.71055,-321.082763,-321.114402,-470.52658,-470.53204
13.7206,-321.11254,-321.149309,-470.556357,-470.566946
13.73083,-321.142225,-321.184216,-470.586042,-470.601853
13.74088,-321.170809,-321.219122,-470.614627,-470.628033
13.75123,-321.199604,-321.245302,-470.643421,-470.662939
13.76119,-321.22672,-321.280209,-470.670537,-470.697846
13.77137,-321.253852,-321.315115,-470.697669,-470.724026
13.78154,-321.280317,-321.341295,-470.724134,-470.750206
13.79958,-321.324992,-321.384928,-470.768809,-470.802566
13.80417,-321.336387,-321.402382,-470.780204,-470.811292
13.81428,-321.360781,-321.419835,-470.804598,-470.837472
13.82442,-321.384642,-321.446015,-470.828459,-470.863652
13.83463,-321.408065,-321.472195,-470.851882,-470.881106
13.84476,-321.430705,-321.489648,-470.874522,-470.898559
13.85524,-321.453803,-321.507102,-470.89762,-470.916012
13.86515,-321.474455,-321.524555,-470.918272,-470.942192
13.87523,-321.495211,-321.550735,-470.939028,-470.950919
13.88544,-321.515618,-321.559461,-470.959435,-470.968372
13.89555,-321.535239,-321.576915,-470.979057,-470.977099
13.9057,-321.554348,-321.594368,-470.998165,-470.994552
13.91596,-321.573038,-321.603095,-471.016855,-471.012005
13.92603,-321.590827,-321.620548,-471.034644,-471.012005
13.93618,-321.608162,-321.629275,-471.051979,-471.029459
13.9463,-321.624848,-321.638001,-471.068665,-471.038185
13.95648,-321.64106,-321.646728,-471.084877,-471.046912
13.96663,-321.656618,-321.655454,-471.100435,-471.055638
13.97677,-321.671588,-321.664181,-471.115405,-471.064365
13.98696,-321.686039,-321.664181,-471.129857,-471.073092
13.99706,-321.699797,-321.664181,-471.143614,-471.081818
14.00723,-321.713064,-321.672908,-471.156881,-471.081818
14.01736,-321.725707,-321.672908,-471.169524,-471.081818
14.02756,-321.737849,-321.681634,-471.181666,-471.090545
14.03769,-321.749344,-321.681634,-471.193161,-471.099272
14.04782,-321.760274,-321.681634,-471.204091,-471.099272
14.05797,-321.770662,-321.690361,-471.214479,-471.107998
14.06815,-321.780518,-321.690361,-471.224335,-471.107998
14.07829,-321.789777,-321.690361,-471.233594,-471.116725
14.08842,-321.798473,-321.690361,-471.24229,-471.116725
14.09859,-321.806646,-321.690361,-471.250463,-471.116725
14.1087,-321.814234,-321.690361,-471.258051,-471.125452
14.11884,-321.821306,-321.699088,-471.265124,-471.125452
14.12944,-321.82811,-321.699088,-471.271927,-471.134178
14.13913,-321.833866,-321.699088,-471.277684,-471.134178
14.14931,-321.839379,-321.707814,-471.283196,-471.134178
14.15941,-321.844347,-321.716541,-471.288165,-471.134178
14.16953,-321.848828,-321.716541,-471.292646,-471.134178
14.18075,-321.853169,-321.725268,-471.296986,-471.134178
14.19055,-321.856556,-321.733994,-471.300374,-471.134178
14.20065,-321.859592,-321.733994,-471.303409,-471.142905
14.21085,-321.862211,-321.742721,-471.306028,-471.142905
14.22094,-321.864395,-321.751448,-471.308213,-471.151632
14.23116,-321.866214,-321.751448,-471.310031,-471.151632
14.24122,-321.871654,-321.760174,-471.315472,-471.151632
14.26248,-321.871654,-321.760174,-471.315472,-471.151632
14.26706,-321.871654,-321.768901,-471.315472,-471.151632
14.27724,-321.871654,-321.768901,-471.315472,-471.151632
14.28773,-321.871654,-321.768901,-471.315472,-471.151632
14.29754,-321.871654,-321.768901,-471.315472,-471.151632
14.30769,-321.871654,-321.768901,-471.315472,-471.151632
14.31784,-321.871654,-321.768901,-471.315472,-471.151632
14.32826,-321.871654,-321.768901,-471.315472,-471.151632
14.33813,-321.871654,-321.768901,-471.315472,-471.151632
14.34843,-321.871654,-321.768901,-471.315472,-471.151632
14.35842,-321.871654,-321.768901,-471.315472,-471.151632
14.36855,-321.871654,-321.768901,-471.315472,-471.151632
14.37869,-321.871654,-321.768901,-471.315472,-471.151632
14.38893,-321.871654,-321.768901,-471.315472,-471.151632
14.39902,-321.871654,-321.768901,-471.315472,-471.151632
14.40914,-321.871654,-321.768901,-471.315472,-471.151632
14.41929,-321.871654,-321.768901,-471.315472,-471.151632
14.42952,-321.871654,-321.768901,-471.315472,-471.151632
14.43964,-321.871654,-321.768901,-471.315472,-471.151632
14.44975,-321.871654,-321.768901,-471.315472,-471.151632
14.45997,-321.871654,-321.768901,-471.315472,-471.151632
14.47005,-321.871654,-321.768901,-471.315472,-471.151632
14.48022,-321.871654,-321.768901,-471.315472,-471.151632
14.49075,-321.871654,-321.768901,-471.315472,-471.151632
14.50054,-321.871654,-321.768901,-471.315472,-471.151632
14.51059,-321.871654,-321.768901,-471.315472,-471.151632
14.52074,-321.871654,-321.768901,-471.315472,-471.151632
14.5309,-321.871654,-321.768901,-471.315472,-471.151632
14.54107,-321.871654,-321.768901,-471.315472,-471.151632
14.55118,-321.871654,-321.768901,-471.315472,-471.151632
14.56133,-321.871654,-321.768901,-471.315472,-471.151632
14.57148,-321.871654,-321.768901,-471.315472,-471.151632
14.58952,-321.871654,-321.768901,-471.315472,-471.151632
14.59408,-321.871654,-321.768901,-471.315472,-471.151632
14.60429,-321.871654,-321.768901,-471.315472,-471.151632
14.61441,-321.871654,-321.768901,-471.315472,-471.151632
14.62455,-321.871654,-321.768901,-471.315472,-471.151632
14.63479,-321.871654,-321.768901,-471.315472,-471.151632
14.64486,-321.871654,-321.768901,-471.315472,-471.151632
14.65505,-321.871654,-321.768901,-471.315472,-471.151632
14.66519,-321.871654,-321.768901,-471.315472,-471.151632
14.67536,-321.871654,-321.768901,-471.315472,-471.151632
14.68559,-321.871654,-321.768901,-471.315472,-471.151632
14.69566,-321.871654,-321.768901,-471.315472,-471.151632
14.70588,-321.871654,-321.768901,-471.315472,-471.151632
14.71609,-321.871654,-321.768901,-471.315472,-471.151632
14.72617,-321.871654,-321.768901,-471.315472,-471.151632
14.73634,-321.871654,-321.768901,-471.315472,-471.151632
14.74644,-321.871654,-321.768901,-471.315472,-471.151632
14.75664,-321.871654,-321.768901,-471.315472,-471.151632
14.76677,-321.871654,-321.768901,-471.315472,-471.151632
14.77692,-321.871654,-321.768901,-471.315472,-471.151632
14.78707,-321.871654,-321.768901,-471.315472,-471.151632
14.79726,-321.871654,-321.768901,-471.315472,-471.151632
14.80738,-321.871654,-321.768901,-471.315472,-471.151632
14.81757,-321.871654,-321.768901,-471.315472,-471.151632
14.82772,-321.871654,-321.768901,-471.315472,-471.151632
14.83789,-321.871654,-321.768901,-471.315472,-471.151632
14.84802,-321.871654,-321.768901,-471.315472,-471.151632
14.85989,-321.871654,-321.768901,-471.315472,-471.151632
14.86833,-321.871654,-321.768901,-471.315472,-471.151632
14.87845,-321.871654,-321.768901,-471.315472,-471.151632
14.88858,-321.871654,-321.768901,-471.315472,-471.151632
14.89881,-321.871654,-321.768901,-471.315472,-471.151632
14.90928,-321.871654,-321.768901,-471.315472,-471.151632
14.91906,-321.871654,-321.768901,-471.315472,-471.151632
14.92918,-321.871654,-321.768901,-471.315472,-471.151632
14.93936,-321.871654,-321.768901,-471.315472,-471.151632
14.94954,-321.871654,-321.768901,-471.315472,-471.151632
14.95968,-321.871654,-321.768901,-471.315472,-471.151632
14.96981,-321.871654,-321.768901,-471.315472,-471.151632
14.98003,-321.871654,-321.768901,-471.315472,-471.151632
14.99015,-321.871654,-321.768901,-471.315472,-471.151632
15.00028,-321.871654,-321.768901,-471.315472,-471.151632
15.01078,-321.871654,-321.768901,-471.315472,-471.151632
15.02058,-321.871654,-321.768901,-471.315472,-471.151632
15.03068,-321.871654,-321.768901,-471.315472,-471.151632
15.04083,-321.871654,-321.768901,-471.315472,-471.151632
15.05108,-321.871654,-321.768901,-471.315472,-471.151632
15.06128,-321.871654,-321.768901,-471.315472,-471.151632
15.0714,-321.871654,-321.768901,-471.315472,-471.151632
15.08157,-321.871654,-321.768901,-471.315472,-471.151632
15.09174,-321.871654,-321.768901,-471.315472,-471.151632
15.1018,-321.871654,-321.768901,-471.315472,-471.151632
15.11223,-321.871654,-321.768901,-471.315472,-471.151632
15.12239,-321.871654,-321.768901,-471.315472,-471.151632
15.1326,-321.871654,-321.768901,-471.315472,-471.151632
15.14271,-321.871654,-321.768901,-471.315472,-471.151632
15.15285,-321.871654,-321.768901,-471.315472,-471.151632
15.16299,-321.871654,-321.768901,-471.315472,-471.151632
15.17316,-321.871654,-321.768901,-471.315472,-471.151632
15.18333,-321.871654,-321.768901,-471.315472,-471.151632
15.19346,-321.871654,-321.768901,-471.315472,-471.151632
15.20357,-321.871654,-321.768901,-471.315472,-471.151632
15.21371,-321.871654,-321.768901,-471.315472,-471.151632
15.22391,-321.871654,-321.768901,-471.315472,-471.151632
15.23408,-321.871654,-321.768901,-471.315472,-471.151632
15.24422,-321.871654,-321.768901,-471.315472,-471.151632
15.25455,-321.871654,-321.768901,-471.315472,-471.151632
15.26452,-321.871654,-321.768901,-471.315472,-471.151632
15.27472,-321.871654,-321.768901,-471.315472,-471.151632
15.28483,-321.871654,-321.768901,-471.315472,-471.151632
15.29498,-321.871654,-321.768901,-471.315472,-471.151632
15.30514,-321.871654,-321.768901,-471.315472,-471.151632
15.31529,-321.871654,-321.768901,-471.315472,-471.151632
15.33398,-321.871654,-321.768901,-471.315472,-471.151632
15.33858,-321.871654,-321.768901,-471.315472,-471.151632
15.34885,-321.871654,-321.768901,-471.315472,-471.151632
15.35886,-321.871654,-321.768901,-471.315472,-471.151632
15.36901,-321.871654,-321.768901,-471.315472,-471.151632
15.37941,-321.871654,-321.768901,-471.315472,-471.151632
15.3893,-321.871654,-321.768901,-471.315472,-471.151632
15.39942,-321.871654,-321.768901,-471.315472,-471.151632
15.4096,-321.871654,-321.768901,-471.315472,-471.151632
15.41971,-321.871654,-321.768901,-471.315472,-471.151632
15.42985,-321.871654,-321.768901,-471.315472,-471.151632
15.44005,-321.871654,-321.768901,-471.315472,-471.151632
15.45798,-321.871654,-321.768901,-471.315472,-471.151632
15.46254,-321.871654,-321.768901,-471.315472,-471.151632
15.47269,-321.871654,-321.768901,-471.315472,-471.151632
15.48288,-321.871654,-321.768901,-471.315472,-471.151632
15.49297,-321.871654,-321.768901,-471.315472,-471.151632
15.50314,-321.871654,-321.768901,-471.315472,-471.151632
15.51328,-321.871654,-321.768901,-471.315472,-471.151632
15.52345,-321.871654,-321.768901,-471.315472,-471.151632
15.53371,-321.871654,-321.768901,-471.315472,-471.151632
15.54384,-321.871654,-321.768901,-471.315472,-471.151632
15.55397,-321.871654,-321.768901,-471.315472,-471.151632
15.56421,-321.871654,-321.768901,-471.315472,-471.151632
15.57428,-321.871654,-321.768901,-471.315472,-471.151632
15.58443,-321.871654,-321.768901,-471.315472,-471.151632
15.59462,-321.871654,-321.768901,-471.315472,-471.151632
15.60476,-321.871654,-321.768901,-471.315472,-471.151632
15.61489,-321.871654,-321.768901,-471.315472,-471.151632
15.62506,-321.871654,-321.768901,-471.315472,-471.151632
15.63542,-321.871654,-321.768901,-471.315472,-471.151632
15.64562,-321.871654,-321.768901,-471.315472,-471.151632
15.65552,-321.871654,-321.768901,-471.315472,-471.160358
15.66567,-321.871654,-321.768901,-471.315472,-471.160358
15.67586,-321.871654,-321.768901,-471.315472,-471.169085
15.68595,-321.871654,-321.768901,-471.315472,-471.177812
15.69613,-321.871654,-321.768901,-471.315472,-471.186538
15.70627,-321.871654,-321.768901,-471.315472,-471.195265
15.71648,-321.871654,-321.768901,-471.315472,-471.203991
15.72662,-321.871654,-321.768901,-471.315472,-471.212718
15.73708,-321.871654,-321.768901,-471.315472,-471.221445
15.74722,-321.871654,-321.768901,-471.315472,-471.221445
15.75744,-321.871654,-321.768901,-471.315472,-471.221445
15.76755,-321.871654,-321.768901,-471.315472,-471.230171
15.77769,-321.871654,-321.768901,-471.315472,-471.230171
15.78784,-321.871654,-321.768901,-471.315472,-471.238898
15.79799,-321.871654,-321.768901,-471.315472,-471.238898
15.80813,-321.871654,-321.768901,-471.315472,-471.238898
15.81827,-321.871654,-321.777628,-471.315472,-471.238898
15.82846,-321.871654,-321.777628,-471.315472,-471.238898
15.83859,-321.871654,-321.777628,-471.315472,-471.238898
15.84871,-321.871654,-321.786354,-471.315472,-471.238898
15.85935,-321.871654,-321.786354,-471.315472,-471.238898
15.86911,-321.871654,-321.795081,-471.315472,-471.238898
15.87917,-321.871654,-321.803807,-471.315472,-471.238898
15.88931,-321.871654,-321.803807,-471.315472,-471.238898
15.89946,-321.871654,-321.803807,-471.315472,-471.238898
15.90967,-321.871654,-321.803807,-471.315472,-471.238898
15.91978,-321.871654,-321.803807,-471.315472,-471.238898
15.92991,-321.871654,-321.812534,-471.315472,-471.238898
15.94814,-321.871654,-321.812534,-471.315472,-471.238898
15.95269,-321.871654,-321.812534,-471.315472,-471.238898
15.96293,-321.871654,-321.812534,-471.315472,-471.238898
15.97305,-321.871654,-321.812534,-471.315472,-471.238898
15.98319,-321.871654,-321.812534,-471.315472,-471.238898
15.99331,-321.871654,-321.812534,-471.315472,-471.238898
16.00351,-321.871654,-321.812534,-471.315472,-471.238898
16.01373,-321.871654,-321.812534,-471.315472,-471.238898
16.02383,-321.871654,-321.812534,-471.315472,-471.238898
16.03419,-321.871654,-321.812534,-471.315472,-471.238898
16.04421,-321.871654,-321.812534,-471.315472,-471.238898
16.0543,-321.871654,-321.812534,-471.315472,-471.238898
16.06477,-321.871654,-321.812534,-471.315472,-471.238898
16.07468,-321.871654,-321.812534,-471.315472,-471.238898
16.08479,-321.871654,-321.812534,-471.315472,-471.238898
16.09493,-321.871654,-321.812534,-471.315472,-471.238898
16.10505,-321.871654,-321.812534,-471.315472,-471.238898
16.11523,-321.871654,-321.812534,-471.315472,-471.238898
16.1254,-321.871654,-321.812534,-471.315472,-471.238898
16.13586,-321.871654,-321.812534,-471.315472,-471.238898
16.14571,-321.871654,-321.812534,-471.315472,-471.238898
16.15582,-321.871654,-321.812534,-471.315472,-471.238898
16.166,-321.871654,-321.812534,-471.315472,-471.238898
16.17616,-321.871654,-321.812534,-471.315472,-471.238898
16.18632,-321.871654,-321.812534,-471.315472,-471.238898
16.19648,-321.871654,-321.812534,-471.315472,-471.238898
16.20656,-321.871654,-321.812534,-471.315472,-471.238898
16.2167,-321.871654,-321.812534,-471.315472,-471.238898
16.22694,-321.871654,-321.812534,-471.315472,-471.238898
16.24526,-321.871654,-321.812534,-471.315472,-471.238898
16.25169,-321.871654,-321.812534,-471.315472,-471.238898
16.26004,-321.871654,-321.812534,-471.315472,-471.238898
16.27018,-321.871654,-321.812534,-471.315472,-471.238898
16.28034,-321.871654,-321.812534,-471.315472,-471.238898
16.29043,-321.871654,-321.812534,-471.315472,-471.238898
16.3006,-321.871654,-321.812534,-471.315472,-471.238898
16.31068,-321.871654,-321.812534,-471.315472,-471.238898
16.32101,-321.871654,-321.812534,-471.315472,-471.238898
16.331,-321.871654,-321.812534,-471.315472,-471.238898
16.34116,-321.871654,-321.812534,-471.315472,-471.238898
16.3513,-321.871654,-321.812534,-471.315472,-471.238898
16.36141,-321.871654,-321.812534,-471.315472,-471.238898
16.37995,-321.871654,-321.812534,-471.315472,-471.238898
16.38446,-321.871654,-321.812534,-471.315472,-471.238898
16.39464,-321.871654,-321.812534,-471.315472,-471.238898
16.40481,-321.871654,-321.812534,-471.315472,-471.238898
