Time,Reference,Angle,Reference,Angle
6.833007,-802.208645,-802.205684,-1258.30681,-1258.30385
6.837667,-802.209345,-802.205684,-1258.30751,-1258.30385
6.847767,-802.211645,-802.205684,-1258.30981,-1258.30385
6.857887,-802.214564,-802.205684,-1258.31273,-1258.30385
6.868009,-802.218097,-802.214411,-1258.31626,-1258.31258
6.878147,-802.222254,-802.214411,-1258.32042,-1258.31258
6.888351,-802.227065,-802.214411,-1258.32523,-1258.31258
6.898422,-802.232416,-802.214411,-1258.33058,-1258.31258
6.908559,-802.238423,-802.223137,-1258.33659,-1258.31258
6.918733,-802.245073,-802.223137,-1258.34324,-1258.31258
6.928962,-802.252392,-802.223137,-1258.35056,-1258.31258
6.938938,-802.260113,-802.223137,-1258.35828,-1258.3213
6.949056,-802.268566,-802.231864,-1258.36673,-1258.3213
6.959189,-802.277648,-802.240591,-1258.37581,-1258.33003
6.969299,-802.287322,-802.240591,-1258.38549,-1258.33003
6.979474,-802.297681,-802.249317,-1258.39585,-1258.33876
6.989562,-802.308558,-802.249317,-1258.40672,-1258.34748
6.999687,-802.320094,-802.258044,-1258.41826,-1258.35621
7.009808,-802.332238,-802.258044,-1258.43041,-1258.36494
7.019938,-802.345006,-802.258044,-1258.44317,-1258.37366
7.030081,-802.358412,-802.258044,-1258.45658,-1258.38239
7.040858,-802.373391,-802.266771,-1258.47156,-1258.39984
7.050385,-802.387113,-802.275497,-1258.48528,-1258.40857
7.060478,-802.402289,-802.284224,-1258.50046,-1258.42602
7.070644,-802.418204,-802.292951,-1258.51637,-1258.43475
7.080725,-802.434583,-802.292951,-1258.53275,-1258.4522
7.090861,-802.451675,-802.310404,-1258.54984,-1258.46966
7.100992,-802.469374,-802.327857,-1258.56754,-1258.47838
7.11115,-802.487749,-802.336584,-1258.58592,-1258.49584
7.121239,-802.50659,-802.362764,-1258.60476,-1258.50456
7.131359,-802.526115,-802.380217,-1258.62428,-1258.52202
7.14162,-802.546558,-802.39767,-1258.64472,-1258.53947
7.15163,-802.567077,-802.42385,-1258.66524,-1258.55692
7.16176,-802.588467,-802.45003,-1258.68663,-1258.57438
7.171888,-802.610467,-802.47621,-1258.70863,-1258.59183
7.182051,-802.633178,-802.50239,-1258.73134,-1258.60928
7.192177,-802.656404,-802.537297,-1258.75457,-1258.63546
7.212335,-802.705708,-802.598383,-1258.80387,-1258.68782
7.216775,-802.716464,-802.615836,-1258.81463,-1258.69655
7.226909,-802.741825,-802.642016,-1258.83999,-1258.73146
7.237035,-802.767779,-802.676923,-1258.86595,-1258.75764
7.247225,-802.794532,-802.71183,-1258.8927,-1258.79254
7.257303,-802.821579,-802.746736,-1258.91975,-1258.82745
7.267434,-802.849393,-802.781643,-1258.94756,-1258.86236
7.277584,-802.87788,-802.816549,-1258.97605,-1258.90599
7.287691,-802.906868,-802.851456,-1259.00503,-1258.9409
7.297822,-802.936526,-802.895089,-1259.03469,-1258.98453
7.307939,-802.96676,-802.929996,-1259.06493,-1259.01944
7.318085,-802.997705,-802.964902,-1259.09587,-1259.06307
7.328238,-803.029284,-803.008536,-1259.12745,-1259.1067
7.338337,-803.061305,-803.043442,-1259.15947,-1259.14161
7.348478,-803.094098,-803.078349,-1259.19226,-1259.18524
7.358587,-803.127372,-803.113255,-1259.22554,-1259.22015
7.368711,-803.161322,-803.148162,-1259.25949,-1259.26378
7.378828,-803.195851,-803.191795,-1259.29402,-1259.30742
7.388965,-803.231087,-803.226702,-1259.32925,-1259.34232
7.399117,-803.266991,-803.261608,-1259.36516,-1259.37723
7.409387,-803.303926,-803.305242,-1259.40209,-1259.42086
7.419334,-803.340302,-803.340148,-1259.43847,-1259.45577
7.429498,-803.378094,-803.375055,-1259.47626,-1259.49067
7.439596,-803.416254,-803.409961,-1259.51442,-1259.53431
7.449858,-803.455683,-803.444868,-1259.55385,-1259.56921
7.459858,-803.494666,-803.479774,-1259.59283,-1259.60412
7.46998,-803.534755,-803.523408,-1259.63292,-1259.63903
7.48013,-803.575577,-803.558314,-1259.67374,-1259.68266
7.490228,-803.616801,-803.601947,-1259.71497,-1259.71757
7.500396,-803.658942,-803.636854,-1259.75711,-1259.7612
7.510493,-803.701385,-803.680487,-1259.79955,-1259.79611
7.520611,-803.744532,-803.715394,-1259.8427,-1259.83101
7.530746,-803.788376,-803.759027,-1259.88654,-1259.87465
7.540869,-803.832783,-803.793934,-1259.93095,-1259.90955
7.551077,-803.878191,-803.837567,-1259.97636,-1259.95319
7.561166,-803.923663,-803.872474,-1260.02183,-1259.98809
7.571279,-803.969858,-803.916107,-1260.06802,-1260.03173
7.58144,-804.016921,-803.968467,-1260.11509,-1260.07536
7.59151,-804.064417,-804.003373,-1260.16258,-1260.11899
7.601923,-804.113996,-804.055733,-1260.21216,-1260.16263
7.611788,-804.161099,-804.099366,-1260.25927,-1260.21499
7.621943,-804.210588,-804.143,-1260.30875,-1260.25862
7.632042,-804.260394,-804.195359,-1260.35856,-1260.31098
7.642151,-804.310883,-804.247719,-1260.40905,-1260.35461
7.652294,-804.36217,-804.300079,-1260.46034,-1260.40697
7.67043,-804.456266,-804.387346,-1260.55443,-1260.50297
7.674962,-804.479705,-804.413526,-1260.57787,-1260.52915
7.684987,-804.532338,-804.465885,-1260.6305,-1260.58151
7.695146,-804.586298,-804.526972,-1260.68446,-1260.63387
7.705247,-804.64056,-804.579332,-1260.73873,-1260.69495
7.715393,-804.695689,-804.631692,-1260.79386,-1260.74731
7.725616,-804.751871,-804.701505,-1260.85004,-1260.8084
7.736102,-804.810166,-804.753865,-1260.90833,-1260.86948
7.746011,-804.865826,-804.814951,-1260.96399,-1260.92184
7.756126,-804.923257,-804.876038,-1261.02142,-1260.98293
7.774279,-805.028748,-804.937124,-1261.12691,-1261.04402
7.778687,-805.05428,-805.015664,-1261.15245,-1261.12256
7.788826,-805.113855,-805.085477,-1261.21202,-1261.18364
7.798985,-805.174144,-805.146564,-1261.27231,-1261.24473
7.809075,-805.234626,-805.20765,-1261.33279,-1261.31454
7.819202,-805.295959,-805.268737,-1261.39413,-1261.37563
7.829377,-805.358211,-805.329823,-1261.45638,-1261.44544
7.839444,-805.420388,-805.399637,-1261.51855,-1261.50653
7.849581,-805.483642,-805.46945,-1261.58181,-1261.57634
7.859709,-805.547442,-805.530536,-1261.64561,-1261.63743
7.877849,-805.664149,-805.591623,-1261.76232,-1261.70724
7.882256,-805.692386,-805.670163,-1261.79055,-1261.78578
7.892428,-805.758475,-805.739976,-1261.85664,-1261.8556
7.90253,-805.824699,-805.801062,-1261.92287,-1261.92541
7.912727,-805.892199,-805.870876,-1261.99037,-1261.9865
7.922784,-805.959336,-805.940689,-1262.0575,-1262.05631
7.932934,-806.027735,-806.010502,-1262.1259,-1262.12612
7.943087,-806.096765,-806.071588,-1262.19493,-1262.19594
7.953171,-806.165941,-806.141402,-1262.26411,-1262.26575
7.963294,-806.236008,-806.211215,-1262.33417,-1262.32683
7.973482,-806.307178,-806.281028,-1262.40534,-1262.39665
7.983552,-806.378051,-806.350841,-1262.47622,-1262.46646
7.99368,-806.450006,-806.420654,-1262.54817,-1262.53627
8.003796,-806.522461,-806.490467,-1262.62063,-1262.60609
8.013935,-806.595713,-806.569007,-1262.69388,-1262.6759
8.024095,-806.669737,-806.63882,-1262.7679,-1262.74571
8.045598,-806.829954,-806.708634,-1262.92812,-1262.81553
8.050021,-806.862739,-806.830807,-1262.96091,-1262.92897
8.060163,-806.938833,-806.90062,-1263.037,-1262.99879
8.070292,-807.015453,-806.97916,-1263.11362,-1263.07733
8.08074,-807.095127,-807.057699,-1263.19329,-1263.15587
8.090855,-807.172865,-807.144966,-1263.27103,-1263.22568
8.100974,-807.251264,-807.214779,-1263.34943,-1263.30422
8.11116,-807.330799,-807.293319,-1263.42897,-1263.38276
8.121221,-807.409945,-807.371859,-1263.50811,-1263.4613
8.13139,-807.490621,-807.459125,-1263.58879,-1263.53984
8.141494,-807.571328,-807.537665,-1263.66949,-1263.62711
8.151609,-807.652761,-807.616205,-1263.75093,-1263.70564
8.161741,-807.734947,-807.703471,-1263.83311,-1263.78418
8.17202,-807.819014,-807.782011,-1263.91718,-1263.86272
8.182298,-807.903657,-807.860551,-1264.00182,-1263.94999
8.192116,-807.985035,-807.947817,-1264.0832,-1264.03726
8.204179,-808.086086,-808.035084,-1264.18425,-1264.1158
8.2124,-808.154244,-808.12235,-1264.25241,-1264.20306
8.222534,-808.237054,-808.20089,-1264.33522,-1264.29033
8.232758,-808.320241,-808.296883,-1264.41841,-1264.3776
8.242788,-808.401244,-808.38415,-1264.49941,-1264.46486
8.252937,-808.482604,-808.471416,-1264.58077,-1264.55213
8.263071,-808.563236,-808.549956,-1264.6614,-1264.6394
8.273367,-808.644557,-808.645949,-1264.74272,-1264.73539
8.283268,-808.722168,-808.724489,-1264.82033,-1264.82266
8.293477,-808.801559,-808.820482,-1264.89973,-1264.90992
8.303555,-808.879327,-808.899022,-1264.97749,-1264.99719
8.313691,-808.956956,-808.986288,-1265.05512,-1265.08446
8.323813,-809.033858,-809.064828,-1265.13203,-1265.17172
8.333959,-809.110356,-809.152095,-1265.20852,-1265.25026
8.344126,-809.186378,-809.239361,-1265.28454,-1265.33753
8.35424,-809.261401,-809.317901,-1265.35957,-1265.41607
8.364557,-809.337302,-809.396441,-1265.43547,-1265.49461
8.374453,-809.409539,-809.483707,-1265.50771,-1265.57315
8.384889,-809.485065,-809.562247,-1265.58323,-1265.66041
8.394758,-809.555916,-809.640787,-1265.65408,-1265.73023
8.405008,-809.628884,-809.7106,-1265.72705,-1265.80877
8.415051,-809.699782,-809.78914,-1265.79795,-1265.88731
8.42513,-809.770327,-809.858953,-1265.86849,-1265.95712
8.435261,-809.840628,-809.937493,-1265.93879,-1266.02693
8.445393,-809.910344,-810.007306,-1266.00851,-1266.09675
8.455578,-809.979804,-810.077119,-1266.07797,-1266.17529
8.465693,-810.048178,-810.138206,-1266.14635,-1266.23637
8.476002,-810.117258,-810.199292,-1266.21542,-1266.30619
8.486014,-810.183732,-810.269105,-1266.2819,-1266.36727
8.496136,-810.250362,-810.330192,-1266.34853,-1266.43709
8.506235,-810.316189,-810.391278,-1266.41436,-1266.49817
8.516389,-810.381803,-810.452365,-1266.47997,-1266.55926
8.526531,-810.446733,-810.513451,-1266.5449,-1266.62034
8.536815,-810.511933,-810.565811,-1266.6101,-1266.6727
8.546936,-810.575519,-810.626898,-1266.67369,-1266.73379
8.556878,-810.637384,-810.687984,-1266.73555,-1266.79488
8.567059,-810.700138,-810.740344,-1266.79831,-1266.84724
8.577138,-810.761644,-810.801431,-1266.85981,-1266.90832
8.587276,-810.822903,-810.862517,-1266.92107,-1266.96068
8.597407,-810.883546,-810.914877,-1266.98171,-1267.02177
8.60753,-810.943525,-810.967237,-1267.04169,-1267.07413
8.617643,-811.002821,-811.028323,-1267.10099,-1267.12649
8.627742,-811.061458,-811.08941,-1267.15963,-1267.17885
8.637886,-811.119756,-811.14177,-1267.21792,-1267.23121
8.648011,-811.177314,-811.19413,-1267.27548,-1267.2923
8.658131,-811.234258,-811.255216,-1267.33242,-1267.34466
8.668249,-811.2906,-811.307576,-1267.38877,-1267.39702
8.67851,-811.347104,-811.368663,-1267.44527,-1267.44938
8.688637,-811.402261,-811.421023,-1267.50043,-1267.51046
8.698762,-811.456816,-811.473382,-1267.55498,-1267.56282
8.708932,-811.511036,-811.525742,-1267.6092,-1267.61518
8.719095,-811.564555,-811.586829,-1267.66272,-1267.67627
8.729298,-811.617693,-811.639189,-1267.71586,-1267.72863
8.739292,-811.669173,-811.691549,-1267.76734,-1267.78099
8.749503,-811.721163,-811.752635,-1267.81933,-1267.83335
8.759579,-811.771858,-811.796268,-1267.87003,-1267.88571
8.769702,-811.822179,-811.857355,-1267.92035,-1267.93807
8.780002,-811.872757,-811.900988,-1267.97092,-1267.99915
8.789971,-811.921141,-811.962075,-1268.01931,-1268.04279
8.800092,-811.969654,-812.005708,-1268.06782,-1268.10387
8.810631,-812.019545,-812.058068,-1268.11771,-1268.14751
8.820335,-812.065045,-812.101701,-1268.16321,-1268.20859
8.830482,-812.11173,-812.154061,-1268.2099,-1268.25223
8.840622,-812.157932,-812.206421,-1268.2561,-1268.29586
8.850774,-812.203595,-812.241327,-1268.30176,-1268.34822
8.860886,-812.248469,-812.293687,-1268.34664,-1268.40058
8.871072,-812.293062,-812.33732,-1268.39123,-1268.44421
8.881125,-812.336495,-812.380954,-1268.43466,-1268.48785
8.891374,-812.380155,-812.424587,-1268.47832,-1268.53148
8.901394,-812.422248,-812.46822,-1268.52041,-1268.57511
8.911704,-812.464946,-812.52058,-1268.56311,-1268.62747
8.921653,-812.505575,-812.555487,-1268.60374,-1268.66238
8.931953,-812.547008,-812.59912,-1268.64517,-1268.69729
8.941929,-812.586563,-812.642753,-1268.68473,-1268.74092
8.952026,-812.626005,-812.67766,-1268.72417,-1268.78455
8.962162,-812.664999,-812.712566,-1268.76317,-1268.81946
8.972277,-812.703318,-812.756199,-1268.80148,-1268.85437
8.982436,-812.741205,-812.791106,-1268.83937,-1268.88927
8.992648,-812.778682,-812.834739,-1268.87685,-1268.92418
9.002745,-812.815133,-812.869646,-1268.9133,-1268.95909
9.012816,-812.850917,-812.904552,-1268.94908,-1268.99399
9.023037,-812.886622,-812.939459,-1268.98479,-1269.0289
9.033119,-812.921249,-812.974366,-1269.01942,-1269.06381
9.043207,-812.95531,-813.009272,-1269.05348,-1269.09871
9.053338,-812.988914,-813.035452,-1269.08708,-1269.12489
9.063474,-813.021958,-813.070359,-1269.12012,-1269.1598
9.073589,-813.05432,-813.096539,-1269.15249,-1269.18598
9.083744,-813.086228,-813.122719,-1269.18439,-1269.22089
9.093886,-813.117492,-813.157625,-1269.21566,-1269.24707
9.104017,-813.148135,-813.183805,-1269.2463,-1269.27325
9.114155,-813.178192,-813.218712,-1269.27636,-1269.29943
9.124235,-813.207515,-813.244892,-1269.30568,-1269.32561
9.134404,-813.23649,-813.271072,-1269.33466,-1269.36051
9.144531,-813.264748,-813.297251,-1269.36291,-1269.38669
9.154631,-813.292353,-813.323431,-1269.39052,-1269.41287
9.164885,-813.319777,-813.349611,-1269.41794,-1269.43032
9.174962,-813.346129,-813.375791,-1269.4443,-1269.46523
9.185014,-813.371843,-813.401971,-1269.47001,-1269.48268
9.19514,-813.397161,-813.428151,-1269.49533,-1269.50886
9.207401,-813.4269,-813.445604,-1269.52507,-1269.53504
9.215435,-813.446087,-813.471784,-1269.54425,-1269.5525
9.233513,-813.486926,-813.515418,-1269.58509,-1269.59613
9.237939,-813.496966,-813.524144,-1269.59513,-1269.60486
9.248069,-813.519234,-813.541598,-1269.6174,-1269.62231
9.258198,-813.540916,-813.567778,-1269.63908,-1269.64849
9.26832,-813.562006,-813.585231,-1269.66017,-1269.66594
9.278457,-813.582546,-813.602684,-1269.68071,-1269.6834
9.288745,-813.602784,-813.620137,-1269.70095,-1269.70085
9.298715,-813.621842,-813.637591,-1269.72001,-1269.7183
9.308845,-813.640635,-813.655044,-1269.7388,-1269.74448
9.319044,-813.658958,-813.672497,-1269.75712,-1269.75321
9.329088,-813.676443,-813.681224,-1269.77461,-1269.77066
9.339246,-813.693553,-813.698677,-1269.79172,-1269.78812
9.349349,-813.709992,-813.707404,-1269.80816,-1269.80557
9.359483,-813.725911,-813.724857,-1269.82408,-1269.8143
9.369586,-813.741215,-813.74231,-1269.83938,-1269.83175
9.379734,-813.75602,-813.751037,-1269.85419,-1269.8492
9.389899,-813.770277,-813.76849,-1269.86844,-1269.85793
9.399973,-813.783841,-813.777217,-1269.88201,-1269.87538
9.410106,-813.79693,-813.79467,-1269.8951,-1269.88411
9.420229,-813.809439,-813.803397,-1269.90761,-1269.90156
9.430393,-813.82144,-813.812124,-1269.91961,-1269.91029
9.440619,-813.832938,-813.82085,-1269.93111,-1269.91902
9.450697,-813.84373,-813.838304,-1269.9419,-1269.93647
9.460823,-813.854021,-813.84703,-1269.95219,-1269.9452
9.471004,-813.86381,-813.84703,-1269.96198,-1269.95392
9.481081,-813.872967,-813.864483,-1269.97113,-1269.95392
9.491206,-813.881625,-813.87321,-1269.97979,-1269.96265
9.501324,-813.889739,-813.881937,-1269.98791,-1269.97138
9.511462,-813.897338,-813.881937,-1269.9955,-1269.9801
9.52161,-813.904415,-813.890663,-1270.00258,-1269.98883
9.531935,-813.911112,-813.89939,-1270.00928,-1269.98883
9.541907,-813.917009,-813.89939,-1270.01518,-1269.99756
9.551983,-813.922501,-813.908117,-1270.02067,-1270.00628
9.562094,-813.927517,-813.916843,-1270.02568,-1270.00628
9.572234,-813.932054,-813.916843,-1270.03022,-1270.01501
9.582389,-813.936118,-813.916843,-1270.03428,-1270.02374
9.592738,-813.93977,-813.92557,-1270.03794,-1270.02374
9.602765,-813.942873,-813.92557,-1270.04104,-1270.02374
9.613324,-813.945659,-813.934297,-1270.04383,-1270.03246
9.623072,-813.947868,-813.934297,-1270.04603,-1270.03246
9.6331,-813.949754,-813.934297,-1270.04792,-1270.03246
9.643278,-813.951303,-813.934297,-1270.04947,-1270.03246
9.653376,-813.955684,-813.934297,-1270.05385,-1270.03246
9.663686,-813.955684,-813.943023,-1270.05385,-1270.03246
9.6738,-813.955684,-813.943023,-1270.05385,-1270.03246
9.683938,-813.955684,-813.943023,-1270.05385,-1270.03246
9.702323,-813.955684,-813.943023,-1270.05385,-1270.03246
9.706861,-813.955684,-813.943023,-1270.05385,-1270.03246
9.716984,-813.955684,-813.943023,-1270.05385,-1270.03246
9.727183,-813.955684,-813.943023,-1270.05385,-1270.03246
